# Simulation 7 (Data loaded from a file)
# 1287 data points written for 5 variables.
# Simulation warnings:
#   Recovery device deployment at high speed (204 ft/s)
#
# Time (s),Altitude (m),Vertical velocity (m/s),Total velocity (m/s),Thrust (N)
# Event IGNITION occurred at t=0 seconds
# Event LAUNCH occurred at t=0 seconds
0.01,-4.743e-4,-0.095,0.096,0.453
0.02,-4.743e-4,-0.095,0.096,0.443
0.03,-4.743e-4,-0.095,0.096,0.434
0.04,-4.743e-4,-0.095,0.096,0.424
0.05,-4.743e-4,-0.095,0.096,0.415
0.06,-4.743e-4,-0.095,0.096,0.406
0.07,-4.743e-4,-0.095,0.096,0.396
0.08,-4.744e-4,-0.095,0.096,0.387
0.09,-4.744e-4,-0.095,0.096,0.377
0.1,-4.744e-4,-0.095,0.096,0.368
0.11,-4.744e-4,-0.095,0.096,0.359
0.12,-4.744e-4,-0.095,0.096,0.349
0.13,-4.744e-4,-0.095,0.096,0.34
0.14,-4.744e-4,-0.095,0.096,0.331
0.15,-4.744e-4,-0.095,0.096,0.321
0.16,-4.583e-4,-0.092,0.093,13.08
0.17,-8.238e-5,-0.016,0.017,309.902
0.18,7.874e-4,0.157,0.16,996.617
0.19,0.004,0.422,0.429,1418.856
0.2,0.009,0.737,0.749,1619.698
0.21,0.019,1.085,1.102,1745.662
# Event LIFTOFF occurred at t=0.22 seconds
0.22,0.031,1.465,1.487,1871.625
0.23,0.048,1.872,1.901,1981.475
0.24,0.069,2.297,2.333,2049.925
0.25,0.094,2.731,2.773,2083.794
0.26,0.124,3.171,3.22,2108.887
0.27,0.157,3.613,3.668,2112.821
0.28,0.196,4.055,4.117,2114.467
0.29,0.239,4.497,4.567,2116.114
0.3,0.286,4.941,5.017,2117.76
0.31,0.337,5.384,5.467,2119.179
0.32,0.393,5.827,5.917,2113.103
0.33,0.454,6.267,6.363,2103.392
0.34,0.519,6.704,6.808,2093.682
0.35,0.588,7.14,7.25,2083.971
0.36,0.662,7.573,7.69,2075.163
0.37,0.739,8.006,8.13,2074.694
0.38,0.822,8.44,8.57,2076.253
0.39,0.908,8.875,9.011,2077.813
0.4,0.999,9.309,9.453,2079.373
0.41,1.094,9.745,9.895,2080.932
0.42,1.194,10.181,10.338,2082.492
0.43,1.298,10.618,10.781,2084.052
0.44,1.406,11.055,11.225,2085.611
0.45,1.519,11.492,11.67,2087.171
0.46,1.636,11.93,12.115,2088.731
0.47,1.758,12.369,12.56,2090.29
# Event LAUNCHROD occurred at t=0.48 seconds
0.48,1.884,12.806,13.004,2082.318
0.495,2.081,13.449,13.661,2060.437
0.518,2.394,14.395,14.629,2027.616
0.551,2.903,15.766,16.031,1968.122
0.601,3.738,17.647,17.957,1849.31
0.651,4.665,19.418,19.771,1764.031
0.701,5.679,21.131,21.526,1717.618
0.751,6.777,22.81,23.247,1689.463
0.801,7.959,24.46,24.938,1664.865
0.851,9.223,26.125,26.644,1675.631
0.901,10.572,27.813,28.375,1692.471
0.951,12.003,29.446,30.049,1647.986
1.001,13.517,31.105,31.75,1666.891
1.051,15.114,32.761,33.448,1663.998
1.101,16.793,34.413,35.142,1659.383
1.151,18.555,36.059,36.832,1654.769
1.201,20.399,37.701,38.517,1650.155
1.251,22.325,39.337,40.197,1645.54
1.301,24.332,40.968,41.872,1640.926
1.351,26.422,42.593,43.543,1636.311
1.401,28.592,44.212,45.209,1631.697
1.451,30.843,45.825,46.87,1627.083
1.501,33.174,47.432,48.527,1622.468
1.551,35.586,49.032,50.178,1617.854
1.601,38.077,50.625,51.825,1613.24
1.651,40.648,52.211,53.466,1608.625
1.701,43.298,53.79,55.103,1604.011
1.751,46.027,55.361,56.734,1599.396
1.801,48.834,56.92,58.356,1591.83
1.851,51.718,58.432,59.932,1556.564
1.901,54.677,59.933,61.5,1550.482
1.951,57.711,61.431,63.067,1549.837
2.001,60.82,62.927,64.635,1549.193
2.051,64.003,64.419,66.202,1548.549
2.101,67.262,65.909,67.768,1547.905
2.151,70.594,67.396,69.335,1547.261
2.201,74.001,68.881,70.9,1546.617
2.251,77.482,70.365,72.465,1545.973
2.301,81.038,71.846,74.03,1545.329
2.351,84.667,73.327,75.594,1544.685
2.401,88.37,74.807,77.157,1544.04
2.451,92.148,76.286,78.72,1543.396
2.501,95.999,77.765,80.282,1542.752
2.551,99.924,79.245,81.843,1542.108
2.601,103.923,80.724,83.403,1541.464
2.651,107.997,82.204,84.962,1540.82
2.701,112.144,83.683,86.52,1540.176
2.751,116.365,85.162,88.077,1539.532
2.801,120.66,86.641,89.633,1538.888
2.851,125.029,88.118,91.187,1538.243
2.901,129.472,89.593,92.74,1537.599
2.951,133.988,91.067,94.291,1536.955
3.001,138.578,92.537,95.842,1536.311
3.051,143.242,94.004,97.39,1535.667
3.101,147.979,95.467,98.937,1535.023
3.151,152.789,96.925,100.483,1534.379
3.201,157.671,98.379,102.027,1533.734
3.251,162.626,99.827,103.567,1531.624
3.301,167.654,101.266,105.101,1528.198
3.351,172.753,102.697,106.63,1524.772
3.401,177.923,104.12,108.152,1521.346
3.451,183.165,105.538,109.669,1517.92
3.501,188.477,106.949,111.18,1514.494
3.551,193.859,108.355,112.685,1511.068
3.601,199.312,109.756,114.183,1507.641
3.651,204.835,111.152,115.676,1504.215
3.701,210.427,112.544,117.163,1500.789
3.751,216.089,113.931,118.643,1497.363
3.801,221.82,115.313,120.117,1493.937
3.851,227.62,116.69,121.584,1490.511
3.901,233.489,118.059,123.045,1487.084
3.951,239.426,119.421,124.5,1483.658
4.001,245.431,120.775,125.948,1480.232
4.051,251.503,122.119,127.39,1476.806
4.101,257.643,123.455,128.825,1473.38
4.151,263.849,124.781,130.253,1469.954
4.201,270.121,126.098,131.675,1466.528
4.251,276.458,127.407,133.09,1463.101
4.301,282.861,128.708,134.498,1459.675
4.351,289.329,130.003,135.899,1456.249
4.401,295.861,131.292,137.293,1452.823
4.451,302.458,132.575,138.681,1449.397
4.501,309.119,133.853,140.061,1445.971
4.551,315.843,135.126,141.435,1442.545
4.601,322.631,136.393,142.801,1439.118
4.651,329.482,137.653,144.16,1435.692
4.701,336.396,138.905,145.512,1432.266
4.751,343.373,140.149,146.857,1428.84
4.801,350.411,141.383,148.195,1425.414
4.851,357.511,142.608,149.525,1421.988
4.901,364.672,143.823,150.848,1418.561
4.951,371.893,145.028,152.164,1415.135
5.001,379.174,146.226,153.472,1411.709
5.051,386.515,147.416,154.773,1408.283
5.101,393.916,148.6,156.066,1404.857
5.151,401.375,149.777,157.352,1401.431
5.201,408.893,150.949,158.63,1398.005
5.251,416.47,152.115,159.901,1394.578
5.301,424.105,153.273,161.164,1391.152
5.351,431.797,154.424,162.419,1387.726
5.401,439.547,155.566,163.667,1384.3
5.451,447.353,156.699,164.907,1380.874
5.501,455.216,157.819,166.137,1375.876
5.551,463.135,158.925,167.354,1368.963
5.601,471.109,160.016,168.557,1362.046
5.651,479.136,161.095,169.747,1355.129
5.701,487.218,162.16,170.925,1348.212
5.751,495.352,163.215,172.089,1341.295
5.801,503.539,164.258,173.24,1334.378
5.851,511.778,165.289,174.377,1327.46
5.901,520.067,166.308,175.501,1320.543
5.951,528.408,167.314,176.613,1313.626
6.001,536.799,168.306,177.71,1306.709
6.051,545.238,169.283,178.795,1299.792
6.101,553.727,170.246,179.866,1292.875
6.151,562.263,171.194,180.925,1285.958
6.201,570.846,172.129,181.969,1279.041
6.251,579.475,173.051,183.001,1272.123
6.301,588.15,173.961,184.019,1265.206
6.351,596.871,174.859,185.024,1258.289
6.401,605.636,175.746,186.016,1251.372
6.451,614.445,176.62,186.995,1244.455
6.501,623.298,177.481,187.96,1237.538
6.551,632.193,178.329,188.913,1230.621
6.601,641.13,179.162,189.851,1223.704
6.651,650.109,179.981,190.777,1216.787
6.701,659.128,180.786,191.69,1209.869
6.751,668.187,181.578,192.589,1202.952
6.801,677.286,182.358,193.475,1196.035
6.851,686.423,183.126,194.348,1189.118
6.901,695.598,183.882,195.208,1182.201
6.951,704.811,184.626,196.055,1175.284
7.001,714.06,185.356,196.887,1167.42
7.051,723.346,186.069,197.702,1158.028
7.101,732.667,186.764,198.499,1148.615
7.151,742.022,187.441,199.279,1139.202
7.201,751.41,188.101,200.042,1129.789
7.251,760.832,188.744,200.788,1120.376
7.301,770.284,189.372,201.517,1110.963
7.351,779.768,189.983,202.229,1101.55
7.401,789.282,190.58,202.924,1092.137
7.451,798.826,191.16,203.602,1082.724
7.501,808.398,191.725,204.263,1073.311
7.551,817.998,192.272,204.908,1063.898
7.601,827.625,192.803,205.535,1054.485
7.651,837.278,193.316,206.146,1045.072
7.701,846.956,193.814,206.741,1035.659
7.751,856.659,194.295,207.319,1026.246
7.801,866.385,194.761,207.88,1016.833
7.851,876.135,195.213,208.425,1007.42
7.901,885.906,195.649,208.954,998.007
7.951,895.699,196.069,209.466,988.594
8.001,905.513,196.474,209.963,979.182
8.051,915.346,196.863,210.443,969.769
8.101,925.199,197.236,210.907,960.356
8.151,935.069,197.593,211.355,950.943
8.201,944.958,197.935,211.788,941.53
8.251,954.863,198.262,212.204,932.117
8.301,964.784,198.575,212.605,922.704
8.351,974.72,198.873,212.99,913.291
8.401,984.67,199.156,213.36,903.878
8.451,994.635,199.424,213.714,894.465
8.501,1004.613,199.677,214.052,885.052
8.551,1014.602,199.915,214.375,875.639
8.601,1024.604,200.138,214.683,866.226
8.651,1034.616,200.346,214.976,856.813
8.701,1044.638,200.54,215.253,847.4
8.751,1054.669,200.72,215.516,837.987
8.801,1064.71,200.886,215.763,828.574
8.851,1074.758,201.038,215.995,819.161
8.901,1084.813,201.176,216.213,809.748
8.951,1094.875,201.299,216.416,800.335
9.001,1104.943,201.408,216.604,790.922
9.051,1115.015,201.503,216.777,781.509
9.101,1125.093,201.584,216.936,772.096
9.151,1135.174,201.651,217.08,762.683
9.201,1145.257,201.705,217.21,753.27
9.251,1155.344,201.745,217.326,743.857
9.301,1165.432,201.773,217.427,734.444
9.351,1175.521,201.786,217.515,725.031
9.401,1185.61,201.786,217.588,715.618
9.451,1195.699,201.773,217.647,706.206
9.501,1205.787,201.745,217.692,696.793
9.551,1215.873,201.705,217.723,687.38
9.601,1225.957,201.652,217.74,677.967
9.651,1236.038,201.586,217.744,668.554
9.701,1246.115,201.507,217.734,659.141
9.751,1256.188,201.416,217.71,649.728
9.801,1266.256,201.311,217.673,640.315
9.851,1276.319,201.194,217.622,630.902
9.901,1286.376,201.064,217.558,621.489
9.951,1296.425,200.921,217.481,612.076
10.001,1306.467,200.765,217.39,602.663
10.051,1316.501,200.598,217.287,593.25
10.101,1326.527,200.418,217.17,583.837
10.151,1336.543,200.226,217.039,574.424
10.201,1346.549,200.021,216.896,565.011
10.251,1356.545,199.805,216.74,555.598
10.301,1366.529,199.576,216.571,546.185
10.351,1376.502,199.335,216.39,536.772
10.401,1386.462,199.082,216.195,527.359
10.451,1396.41,198.816,215.988,517.946
10.501,1406.344,198.54,215.768,508.533
10.551,1416.263,198.251,215.536,499.12
10.601,1426.168,197.951,215.291,489.707
10.651,1436.058,197.639,215.034,480.294
10.701,1445.932,197.316,214.764,470.881
10.751,1455.789,196.981,214.482,461.468
10.801,1465.63,196.634,214.187,452.055
10.851,1475.453,196.275,213.881,442.643
10.901,1485.257,195.905,213.562,433.23
10.951,1495.043,195.525,213.232,424.422
11.001,1504.809,195.139,212.894,418.165
11.051,1514.556,194.746,212.551,412.193
11.101,1524.284,194.346,212.2,406.221
11.151,1533.991,193.941,211.843,400.25
11.201,1543.678,193.529,211.479,394.278
11.251,1553.344,193.111,211.109,388.306
11.301,1562.989,192.686,210.732,382.334
11.351,1572.612,192.255,210.348,376.362
11.401,1582.214,191.818,209.958,370.391
11.451,1591.794,191.376,209.562,364.419
11.501,1601.351,190.927,209.159,358.447
11.551,1610.886,190.472,208.749,352.475
11.601,1620.398,190.011,208.334,346.504
11.651,1629.887,189.544,207.911,340.532
11.701,1639.353,189.071,207.483,334.56
11.751,1648.794,188.592,207.048,328.588
11.801,1658.212,188.107,206.607,322.616
11.851,1667.605,187.616,206.159,316.645
11.901,1676.973,187.119,205.706,310.673
11.951,1686.316,186.617,205.246,304.701
12.001,1695.635,186.109,204.779,298.729
12.051,1704.927,185.594,204.307,292.758
12.101,1714.194,185.074,203.828,286.786
12.151,1723.434,184.549,203.343,280.814
12.201,1732.649,184.017,202.852,274.842
12.251,1741.836,183.479,202.355,268.87
12.301,1750.996,182.936,201.852,262.899
12.351,1760.129,182.387,201.342,256.927
12.401,1769.235,181.833,200.827,250.955
12.451,1778.312,181.273,200.305,244.983
12.501,1787.362,180.707,199.777,239.012
12.551,1796.383,180.136,199.244,233.04
12.601,1805.375,179.559,198.704,227.068
12.651,1814.339,178.976,198.158,221.096
12.701,1823.273,178.387,197.606,215.124
12.751,1832.177,177.793,197.048,209.153
12.801,1841.052,177.193,196.484,203.181
12.851,1849.896,176.588,195.914,197.209
12.901,1858.711,175.977,195.337,191.237
12.951,1867.494,175.361,194.755,185.266
13.001,1876.247,174.74,194.167,179.294
13.051,1884.968,174.112,193.573,173.322
13.101,1893.658,173.48,192.973,167.35
13.151,1902.316,172.841,192.367,161.378
13.201,1910.942,172.197,191.755,155.407
13.251,1919.535,171.548,191.137,149.435
13.301,1928.096,170.893,190.513,143.463
13.351,1936.624,170.233,189.884,137.491
13.401,1945.119,169.567,189.248,131.52
13.451,1953.581,168.897,188.606,125.548
13.501,1962.009,168.22,187.959,119.576
13.551,1970.403,167.538,187.305,113.604
13.601,1978.763,166.851,186.646,107.679
13.651,1987.088,166.16,185.983,102.888
13.701,1995.378,165.467,185.316,98.585
13.751,2003.634,164.77,184.647,94.283
13.801,2011.855,164.07,183.974,89.98
13.851,2020.041,163.367,183.298,85.678
13.901,2028.192,162.662,182.619,81.375
13.951,2036.307,161.953,181.936,77.073
14.001,2044.387,161.241,181.25,72.77
14.051,2052.431,160.527,180.561,68.468
14.101,2060.44,159.809,179.869,64.165
14.151,2068.412,159.088,179.173,59.863
14.201,2076.348,158.365,178.474,55.561
14.251,2084.248,157.638,177.772,51.258
14.301,2092.112,156.908,177.067,46.956
14.351,2099.939,156.175,176.358,42.653
14.401,2107.73,155.439,175.646,38.351
14.451,2115.483,154.701,174.931,34.048
14.501,2123.199,153.959,174.212,29.746
14.551,2130.879,153.214,173.49,25.443
14.601,2138.521,152.466,172.764,21.141
14.651,2146.125,151.715,172.036,16.838
14.701,2153.692,150.962,171.304,13.053
14.751,2161.222,150.21,170.575,12.17
14.801,2168.713,149.461,169.849,11.738
14.851,2176.168,148.715,169.126,11.306
14.901,2183.585,147.97,168.405,10.875
14.951,2190.965,147.228,167.687,10.443
15.001,2198.308,146.489,166.972,10.011
15.051,2205.614,145.751,166.259,9.579
15.101,2212.883,145.016,165.55,9.147
15.151,2220.115,144.283,164.842,8.715
15.201,2227.311,143.552,164.138,8.284
15.251,2234.471,142.824,163.436,7.852
15.301,2241.594,142.097,162.736,7.42
15.351,2248.68,141.373,162.039,6.988
15.401,2255.731,140.651,161.345,6.556
15.451,2262.745,139.93,160.653,6.125
15.501,2269.724,139.212,159.963,5.693
15.551,2276.667,138.496,159.276,5.261
15.601,2283.573,137.781,158.592,4.829
15.651,2290.445,137.069,157.909,4.397
15.701,2297.28,136.358,157.229,3.965
15.751,2304.081,135.649,156.552,3.534
15.801,2310.845,134.943,155.876,3.102
15.851,2317.575,134.238,155.203,2.67
15.901,2324.269,133.535,154.532,2.238
15.951,2330.928,132.833,153.864,1.806
16.001,2337.552,132.134,153.197,1.374
16.051,2344.142,131.436,152.533,0.943
16.101,2350.696,130.74,151.871,0.511
# Event BURNOUT occurred at t=16.135 seconds
16.135,2355.153,130.265,151.42,0.147
16.185,2361.649,129.572,150.762,0
16.235,2368.11,128.881,150.106,0
16.285,2374.537,128.193,149.454,0
16.335,2380.929,127.506,148.804,0
16.385,2387.287,126.822,148.157,0
16.435,2393.612,126.14,147.512,0
16.485,2399.902,125.46,146.871,0
16.535,2406.158,124.783,146.232,0
16.585,2412.38,124.107,145.595,0
16.635,2418.568,123.433,144.962,0
16.685,2424.723,122.762,144.331,0
16.735,2430.845,122.093,143.702,0
16.785,2436.932,121.425,143.076,0
16.835,2442.987,120.759,142.453,0
16.885,2449.008,120.096,141.832,0
16.935,2454.997,119.434,141.214,0
16.985,2460.952,118.774,140.598,0
17.035,2466.874,118.117,139.985,0
17.085,2472.764,117.461,139.374,0
17.135,2478.62,116.806,138.766,0
17.185,2484.444,116.154,138.16,0
17.235,2490.236,115.504,137.557,0
17.285,2495.995,114.855,136.956,0
17.335,2501.721,114.208,136.357,0
17.385,2507.416,113.563,135.761,0
17.435,2513.078,112.92,135.167,0
17.485,2518.708,112.279,134.576,0
17.535,2524.306,111.639,133.987,0
17.585,2529.872,111.001,133.4,0
17.635,2535.406,110.364,132.815,0
17.685,2540.908,109.729,132.233,0
17.735,2546.379,109.096,131.653,0
17.785,2551.818,108.464,131.076,0
17.835,2557.225,107.834,130.501,0
17.885,2562.601,107.206,129.928,0
17.935,2567.946,106.579,129.357,0
17.985,2573.259,105.954,128.788,0
18.035,2578.541,105.33,128.222,0
18.085,2583.792,104.708,127.658,0
18.135,2589.012,104.087,127.096,0
18.185,2594.201,103.468,126.536,0
18.235,2599.359,102.851,125.978,0
18.285,2604.486,102.234,125.423,0
18.335,2609.582,101.62,124.87,0
18.385,2614.648,101.006,124.319,0
18.435,2619.683,100.394,123.77,0
18.485,2624.687,99.784,123.223,0
18.535,2629.661,99.175,122.679,0
18.585,2634.605,98.567,122.136,0
18.635,2639.518,97.96,121.596,0
18.685,2644.401,97.355,121.058,0
18.735,2649.254,96.752,120.522,0
18.785,2654.076,96.149,119.988,0
18.835,2658.868,95.549,119.456,0
18.885,2663.631,94.949,118.926,0
18.935,2668.363,94.351,118.398,0
18.985,2673.066,93.753,117.872,0
19.035,2677.739,93.158,117.349,0
19.085,2682.382,92.563,116.827,0
19.135,2686.995,91.97,116.308,0
19.185,2691.579,91.378,115.79,0
19.235,2696.133,90.787,115.275,0
19.285,2700.657,90.197,114.762,0
19.335,2705.153,89.608,114.251,0
19.385,2709.618,89.021,113.741,0
19.435,2714.055,88.435,113.234,0
19.485,2718.462,87.85,112.729,0
19.535,2722.84,87.266,112.226,0
19.585,2727.188,86.683,111.725,0
19.635,2731.508,86.102,111.226,0
19.685,2735.799,85.521,110.729,0
19.735,2740.06,84.942,110.234,0
19.785,2744.293,84.364,109.741,0
19.835,2748.497,83.787,109.25,0
19.885,2752.672,83.211,108.761,0
19.935,2756.818,82.636,108.274,0
19.985,2760.935,82.062,107.789,0
20.035,2765.024,81.489,107.307,0
20.085,2769.084,80.917,106.826,0
20.135,2773.116,80.346,106.347,0
20.185,2777.119,79.776,105.87,0
20.235,2781.093,79.207,105.395,0
20.285,2785.039,78.639,104.923,0
20.335,2788.957,78.073,104.452,0
20.385,2792.847,77.507,103.983,0
20.435,2796.708,76.942,103.516,0
20.485,2800.541,76.378,103.052,0
20.535,2804.346,75.815,102.589,0
20.585,2808.122,75.253,102.129,0
20.635,2811.871,74.692,101.67,0
20.685,2815.592,74.131,101.213,0
20.735,2819.284,73.572,100.759,0
20.785,2822.949,73.014,100.306,0
20.835,2826.586,72.456,99.856,0
20.885,2830.194,71.9,99.408,0
20.935,2833.776,71.344,98.961,0
20.985,2837.329,70.789,98.517,0
21.035,2840.854,70.235,98.075,0
21.085,2844.352,69.682,97.635,0
21.135,2847.823,69.13,97.197,0
21.185,2851.265,68.578,96.761,0
21.235,2854.681,68.028,96.327,0
21.285,2858.068,67.478,95.895,0
21.335,2861.428,66.929,95.465,0
21.385,2864.761,66.381,95.037,0
21.435,2868.066,65.834,94.612,0
21.485,2871.345,65.287,94.188,0
21.535,2874.595,64.741,93.767,0
21.585,2877.819,64.196,93.348,0
21.635,2881.015,63.652,92.931,0
21.685,2884.184,63.108,92.516,0
21.735,2887.326,62.566,92.103,0
21.785,2890.44,62.024,91.692,0
21.835,2893.528,61.482,91.284,0
21.885,2896.589,60.942,90.877,0
21.935,2899.622,60.402,90.473,0
21.985,2902.629,59.863,90.071,0
22.035,2905.609,59.325,89.671,0
22.085,2908.561,58.787,89.274,0
22.135,2911.487,58.25,88.878,0
22.185,2914.386,57.714,88.485,0
22.235,2917.259,57.179,88.094,0
22.285,2920.104,56.644,87.706,0
22.335,2922.923,56.11,87.319,0
22.385,2925.715,55.576,86.935,0
22.435,2928.481,55.043,86.553,0
22.485,2931.22,54.511,86.174,0
22.535,2933.932,53.98,85.797,0
22.585,2936.618,53.449,85.422,0
22.635,2939.277,52.918,85.049,0
22.685,2941.909,52.389,84.679,0
22.735,2944.516,51.86,84.311,0
22.785,2947.095,51.331,83.945,0
22.835,2949.649,50.803,83.582,0
22.885,2952.176,50.276,83.221,0
22.935,2954.676,49.75,82.863,0
22.985,2957.151,49.224,82.507,0
23.035,2959.599,48.698,82.153,0
23.085,2962.021,48.173,81.802,0
23.135,2964.416,47.649,81.454,0
23.185,2966.786,47.126,81.108,0
23.235,2969.129,46.603,80.764,0
23.285,2971.446,46.08,80.423,0
23.335,2973.737,45.558,80.084,0
23.385,2976.002,45.037,79.748,0
23.435,2978.24,44.516,79.414,0
23.485,2980.453,43.996,79.083,0
23.535,2982.64,43.476,78.755,0
23.585,2984.801,42.957,78.429,0
23.635,2986.936,42.438,78.106,0
23.685,2989.045,41.92,77.786,0
23.735,2991.128,41.402,77.468,0
23.785,2993.185,40.885,77.153,0
23.835,2995.216,40.368,76.84,0
23.885,2997.222,39.852,76.53,0
23.935,2999.201,39.336,76.223,0
23.985,3001.155,38.821,75.919,0
24.035,3003.083,38.306,75.617,0
24.085,3004.986,37.792,75.318,0
24.135,3006.863,37.278,75.022,0
24.185,3008.714,36.765,74.729,0
24.235,3010.539,36.252,74.439,0
24.285,3012.339,35.74,74.152,0
24.335,3014.113,35.228,73.867,0
24.385,3015.862,34.717,73.585,0
24.435,3017.585,34.206,73.306,0
24.485,3019.282,33.695,73.031,0
24.535,3020.954,33.185,72.758,0
24.585,3022.601,32.676,72.488,0
24.635,3024.222,32.166,72.221,0
24.685,3025.818,31.658,71.957,0
24.735,3027.388,31.149,71.696,0
24.785,3028.933,30.641,71.438,0
24.835,3030.452,30.134,71.183,0
24.885,3031.946,29.627,70.932,0
24.935,3033.415,29.12,70.683,0
24.985,3034.858,28.614,70.438,0
25.035,3036.276,28.108,70.195,0
25.085,3037.669,27.602,69.956,0
25.135,3039.036,27.097,69.72,0
25.185,3040.378,26.593,69.488,0
25.235,3041.695,26.088,69.258,0
